"ppm","intensity"
14.9984769344886,721408
14.9983206452224,40960
14.9981643559562,-481536
14.9980080666901,-91136
14.9978517774239,1395968
14.9976954881577,3417856
14.9975391988916,5178112
14.9973829096254,6262784
14.9972266203592,6801408
14.997070331093,7165184
14.9969140418269,7569408
14.9967577525607,7890944
14.9966014632945,7792384
14.9964451740284,7055872
14.9962888847622,5845504
14.996132595496,4595968
14.9959763062299,3627776
14.9958200169637,2941440
14.9956637276975,2374400
14.9955074384313,1751552
14.9953511491652,806656
14.995194859899,-740608
14.9950385706328,-2750976
14.9948822813667,-4480768
14.9947259921005,-5141504
14.9945697028343,-4589312
14.9944134135682,-3250688
14.994257124302,-1555200
14.9941008350358,217600
14.9939445457696,1711360
14.9937882565035,2604032
14.9936319672373,2950144
14.9934756779711,3048192
14.993319388705,3000832
14.9931630994388,2827776
14.9930068101726,2870016
14.9928505209065,3473152
14.9926942316403,4217600
14.9925379423741,4139008
14.9923816531079,2913024
14.9922253638418,1251840
14.9920690745756,-78080
14.9919127853094,-972544
14.9917564960433,-1468672
14.9916002067771,-1329920
14.9914439175109,-715264
14.9912876282448,-566272
14.9911313389786,-1493248
14.9909750497124,-2705408
14.9908187604462,-2895360
14.9906624711801,-1954816
14.9905061819139,-993280
14.9903498926477,-783360
14.9901936033816,-1039104
14.9900373141154,-1274624
14.9898810248492,-1517312
14.9897247355831,-1864960
14.9895684463169,-2021632
14.9894121570507,-1719296
14.9892558677845,-1195776
14.9890995785184,-852736
14.9889432892522,-682752
14.988786999986,-380416
14.9886307107199,139776
14.9884744214537,615424
14.9883181321875,796160
14.9881618429214,755712
14.9880055536552,795904
14.987849264389,1060096
14.9876929751228,1287936
14.9875366858567,1101568
14.9873803965905,580608
14.9872241073243,306176
14.9870678180582,652544
14.986911528792,1297664
14.9867552395258,1741056
14.9865989502597,2037504
14.9864426609935,2544640
14.9862863717273,3115520
14.9861300824611,3126016
14.985973793195,2358528
14.9858175039288,1300224
14.9856612146626,415232
14.9855049253965,-399360
14.9853486361303,-1369088
14.9851923468641,-2245888
14.985036057598,-2482944
14.9848797683318,-1786624
14.9847234790656,-271360
14.9845671897994,1689344
14.9844109005333,3517440
14.9842546112671,4559616
14.9840983220009,4499712
14.9839420327348,3633408
14.9837857434686,2571264
14.9836294542024,1725696
14.9834731649363,1167104
14.9833168756701,809984
14.9831605864039,559872
14.9830042971378,341760
14.9828480078716,132096
14.9826917186054,-66816
14.9825354293392,-306432
14.9823791400731,-609536
14.9822228508069,-761856
14.9820665615407,-376576
14.9819102722746,661760
14.9817539830084,1953024
14.9815976937422,2952960
14.9814414044761,3526912
14.9812851152099,3937792
14.9811288259437,4320768
14.9809725366775,4378624
14.9808162474114,3722240
14.9806599581452,2429184
14.980503668879,1115136
14.9803473796129,373504
14.9801910903467,175360
14.9800348010805,-88832
14.9798785118144,-942080
14.9797222225482,-2249216
14.979565933282,-3335424
14.9794096440158,-3587328
14.9792533547497,-2896640
14.9790970654835,-1639168
14.9789407762173,-364544
14.9787844869512,517376
14.978628197685,889088
14.9784719084188,861184
14.9783156191527,646912
14.9781593298865,552960
14.9780030406203,947200
14.9778467513541,1939200
14.977690462088,3055104
14.9775341728218,3559936
14.9773778835556,3269632
14.9772215942895,2738432
14.9770653050233,2444288
14.9769090157571,2151424
14.976752726491,1439232
14.9765964372248,549376
14.9764401479586,169216
14.9762838586924,524288
14.9761275694263,1207808
14.9759712801601,1861632
14.9758149908939,2473472
14.9756587016278,2953216
14.9755024123616,2945280
14.9753461230954,2272768
14.9751898338293,1178624
14.9750335445631,-44032
14.9748772552969,-1300736
14.9747209660307,-2443264
14.9745646767646,-3165184
14.9744083874984,-3357184
14.9742520982322,-3229696
14.9740958089661,-2897664
14.9739395196999,-2211328
14.9737832304337,-1222400
14.9736269411676,-420608
14.9734706519014,-175360
14.9733143626352,-256000
14.973158073369,-259840
14.9730017841029,-213504
14.9728454948367,-335360
14.9726892055705,-428288
14.9725329163044,-12800
14.9723766270382,974080
14.972220337772,2028800
14.9720640485059,2672896
14.9719077592397,2920448
14.9717514699735,3111168
14.9715951807073,3479296
14.9714388914412,3913728
14.971282602175,4020480
14.9711263129088,3500288
14.9709700236427,2607104
14.9708137343765,2074112
14.9706574451103,2355456
14.9705011558442,3073536
14.970344866578,3485952
14.9701885773118,3384832
14.9700322880456,3198208
14.9698759987795,3299328
14.9697197095133,3632384
14.9695634202471,4062464
14.969407130981,4673280
14.9692508417148,5536512
14.9690945524486,6458112
14.9689382631825,7167488
14.9687819739163,7568128
14.9686256846501,7672064
14.968469395384,7488000
14.9683131061178,7128576
14.9681568168516,6820864
14.9680005275854,6594304
14.9678442383193,6109184
14.9676879490531,5023744
14.9675316597869,3455744
14.9673753705208,1912576
14.9672190812546,872704
14.9670627919884,618752
14.9669065027223,1295360
14.9667502134561,2770944
14.9665939241899,4456192
14.9664376349237,5659904
14.9662813456576,6266624
14.9661250563914,6765312
14.9659687671252,7441408
14.9658124778591,7858432
14.9656561885929,7422976
14.9654998993267,6206720
14.9653436100606,4817408
14.9651873207944,3621120
14.9650310315282,2545408
14.964874742262,1598720
14.9647184529959,1027584
14.9645621637297,798208
14.9644058744635,408064
14.9642495851974,-470784
14.9640932959312,-1501440
14.963937006665,-2162432
14.9637807173989,-2400768
14.9636244281327,-2396928
14.9634681388665,-1947904
14.9633118496003,-636416
14.9631555603342,1434112
14.962999271068,3568896
14.9628429818018,5211904
14.9626866925357,6334208
14.9625304032695,6991360
14.9623741140033,6919680
14.9622178247372,5851136
14.962061535471,4000768
14.9619052462048,2008320
14.9617489569386,502528
14.9615926676725,-154368
14.9614363784063,146688
14.9612800891401,1325568
14.961123799874,3130624
14.9609675106078,5134592
14.9608112213416,6735104
14.9606549320755,7363328
14.9604986428093,6939904
14.9603423535431,6060544
14.9601860642769,5478656
14.9600297750108,5388800
14.9598734857446,5418752
14.9597171964784,5255680
14.9595609072123,4955392
14.9594046179461,4636160
14.9592483286799,4228608
14.9590920394138,3644416
14.9589357501476,2944768
14.9587794608814,2259200
14.9586231716152,1749248
14.9584668823491,1584640
14.9583105930829,1622528
14.9581543038167,1229568
14.9579980145506,-33536
14.9578417252844,-1545472
14.9576854360182,-2148608
14.9575291467521,-1760512
14.9573728574859,-1691904
14.9572165682197,-2840576
14.9570602789535,-4263424
14.9569039896874,-4350464
14.9567477004212,-2992640
14.956591411155,-1645568
14.9564351218889,-1337856
14.9562788326227,-1521920
14.9561225433565,-1091328
14.9559662540904,219392
14.9558099648242,1830912
14.955653675558,3172608
14.9554973862918,4076544
14.9553410970257,4573696
14.9551848077595,4734208
14.9550285184933,4676608
14.9548722292272,4547840
14.954715939961,4508672
14.9545596506948,4780032
14.9544033614287,5551104
14.9542470721625,6760960
14.9540907828963,8067072
14.9539344936302,9077248
14.953778204364,9509888
14.9536219150978,9166848
14.9534656258316,7985920
14.9533093365655,6215680
14.9531530472993,4358144
14.9529967580331,2804736
14.952840468767,1587456
14.9526841795008,550912
14.9525278902346,-329984
14.9523716009685,-866304
14.9522153117023,-857856
14.9520590224361,-358400
14.9519027331699,251392
14.9517464439038,531456
14.9515901546376,389376
14.9514338653714,168960
14.9512775761053,262912
14.9511212868391,750336
14.9509649975729,1451776
14.9508087083068,2134016
14.9506524190406,2516480
14.9504961297744,2361600
14.9503398405082,1878272
14.9501835512421,1824768
14.9500272619759,2777088
14.9498709727097,4348672
14.9497146834436,5574400
14.9495583941774,6057216
14.9494021049112,6254336
14.9492458156451,6536704
14.9490895263789,6518016
14.9489332371127,5660416
14.9487769478465,4163072
14.9486206585804,2790400
14.9484643693142,1963520
14.948308080048,1427712
14.9481517907819,815360
14.9479955015157,209920
14.9478392122495,21248
14.9476829229834,462592
14.9475266337172,1281280
14.947370344451,1991168
14.9472140551848,2310912
14.9470577659187,2340864
14.9469014766525,2329600
14.9467451873863,2415872
14.9465888981202,2681856
14.946432608854,3252224
14.9462763195878,4031744
14.9461200303217,4435712
14.9459637410555,3819264
14.9458074517893,2310912
14.9456511625231,867328
14.945494873257,260096
14.9453385839908,293376
14.9451822947246,288768
14.9450260054585,63744
14.9448697161923,15616
14.9447134269261,367104
14.94455713766,815616
14.9444008483938,1020928
14.9442445591276,1073920
14.9440882698614,1288960
14.9439319805953,1747968
14.9437756913291,2256384
14.9436194020629,2638592
14.9434631127968,2887936
14.9433068235306,3058432
14.9431505342644,3163392
14.9429942449983,3202560
14.9428379557321,3218944
14.9426816664659,3298816
14.9425253771997,3532032
14.9423690879336,3954176
14.9422127986674,4471040
14.9420565094012,4812800
14.9419002201351,4607488
14.9417439308689,3591936
14.9415876416027,1846528
14.9414313523366,-149248
14.9412750630704,-1752576
14.9411187738042,-2540288
14.940962484538,-2517760
14.9408061952719,-1957888
14.9406499060057,-1077248
14.9404936167395,64256
14.9403373274734,1359616
14.9401810382072,2501632
14.940024748941,3188224
14.9398684596749,3448832
14.9397121704087,3591680
14.9395558811425,3788544
14.9393995918764,3890176
14.9392433026102,3744000
14.939087013344,3448576
14.9389307240778,3078400
14.9387744348117,2390016
14.9386181455455,1219072
14.9384618562793,45312
14.9383055670132,-392192
14.938149277747,-189184
14.9379929884808,-419840
14.9378366992147,-1826560
14.9376804099485,-3783168
14.9375241206823,-5019392
14.9373678314161,-5062144
14.93721154215,-4412928
14.9370552528838,-3536128
14.9368989636176,-2380544
14.9367426743515,-946688
14.9365863850853,335616
14.9364300958191,1084416
14.936273806553,1394432
14.9361175172868,1544704
14.9359612280206,1618944
14.9358049387544,1641728
14.9356486494883,1752576
14.9354923602221,1958656
14.9353360709559,1976576
14.9351797816898,1616896
14.9350234924236,1141504
14.9348672031574,987904
14.9347109138913,1259008
14.9345546246251,1667584
14.9343983353589,1840384
14.9342420460927,1576960
14.9340857568266,1046784
14.9339294675604,867840
14.9337731782942,1657600
14.9336168890281,3232512
14.9334605997619,4545536
14.9333043104957,4755712
14.9331480212296,4129280
14.9329917319634,3545088
14.9328354426972,3350784
14.932679153431,3146496
14.9325228641649,2500096
14.9323665748987,1369088
14.9322102856325,-109056
14.9320539963664,-1693696
14.9318977071002,-2904832
14.931741417834,-3381248
14.9315851285679,-3516672
14.9314288393017,-4188672
14.9312725500355,-5554944
14.9311162607693,-6616832
14.9309599715032,-6440704
14.930803682237,-5498112
14.9306473929708,-5239296
14.9304911037047,-6390528
14.9303348144385,-8137472
14.9301785251723,-9065984
14.9300222359062,-8535552
14.92986594664,-6974976
14.9297096573738,-5203712
14.9295533681076,-3854592
14.9293970788415,-3314688
14.9292407895753,-3694848
14.9290845003091,-4546560
14.928928211043,-4851712
14.9287719217768,-3775232
14.9286156325106,-1563136
14.9284593432445,562944
14.9283030539783,1567232
14.9281467647121,1478656
14.9279904754459,1029632
14.9278341861798,766976
14.9276778969136,834560
14.9275216076474,1325824
14.9273653183813,2257664
14.9272090291151,3186688
14.9270527398489,3423488
14.9268964505828,2875904
14.9267401613166,2283264
14.9265838720504,2319616
14.9264275827843,2785280
14.9262712935181,2988800
14.9261150042519,2636032
14.9259587149857,1915904
14.9258024257196,912128
14.9256461364534,-504832
14.9254898471872,-2128640
14.9253335579211,-3240448
14.9251772686549,-3272448
14.9250209793887,-2439168
14.9248646901226,-1469952
14.9247084008564,-823808
14.9245521115902,-361728
14.924395822324,271104
14.9242395330579,1136128
14.9240832437917,1937664
14.9239269545255,2353920
14.9237706652594,2326016
14.9236143759932,2027776
14.923458086727,1652736
14.9233017974609,1312768
14.9231455081947,1112320
14.9229892189285,1176832
14.9228329296623,1525760
14.9226766403962,1971200
14.92252035113,2243584
14.9223640618638,2238720
14.9222077725977,2155264
14.9220514833315,2398720
14.9218951940653,3246592
14.9217389047992,4446720
14.921582615533,5221888
14.9214263262668,4993792
14.9212700370006,4164608
14.9211137477345,3830784
14.9209574584683,4483328
14.9208011692021,5352192
14.920644879936,5409536
14.9204885906698,4693248
14.9203323014036,4060160
14.9201760121375,3835392
14.9200197228713,3494912
14.9198634336051,2784256
14.9197071443389,2320640
14.9195508550728,2646272
14.9193945658066,3340288
14.9192382765404,3669760
14.9190819872743,3651072
14.9189256980081,3726848
14.9187694087419,3725312
14.9186131194758,3041024
14.9184568302096,1848832
14.9183005409434,1304832
14.9181442516772,2225920
14.9179879624111,4120576
14.9178316731449,5792000
14.9176753838787,6433792
14.9175190946126,5904128
14.9173628053464,4505600
14.9172065160802,2920192
14.9170502268141,1939712
14.9168939375479,1750784
14.9167376482817,1739776
14.9165813590155,1410560
14.9164250697494,1173760
14.9162687804832,1719808
14.916112491217,2884608
14.9159562019509,3821568
14.9157999126847,4221696
14.9156436234185,4632576
14.9154873341524,5420800
14.9153310448862,6088704
14.91517475562,6028032
14.9150184663538,5510144
14.9148621770877,5392640
14.9147058878215,6016000
14.9145495985553,6856704
14.9143933092892,7305984
14.914237020023,7411456
14.9140807307568,7618304
14.9139244414907,7952128
14.9137681522245,7790336
14.9136118629583,6613504
14.9134555736922,4826624
14.913299284426,3503872
14.9131429951598,3225856
14.9129867058936,3462400
14.9128304166275,3311360
14.9126741273613,2574848
14.9125178380951,1754112
14.912361548829,1225728
14.9122052595628,962560
14.9120489702966,1057024
14.9118926810305,1913856
14.9117363917643,3617792
14.9115801024981,5464320
14.9114238132319,6454528
14.9112675239658,6131456
14.9111112346996,4808960
14.9109549454334,3201280
14.9107986561673,1956096
14.9106423669011,1291776
14.9104860776349,867840
14.9103297883688,192512
14.9101734991026,-708096
14.9100172098364,-1211392
14.9098609205702,-781056
14.9097046313041,533504
14.9095483420379,2367488
14.9093920527717,4392192
14.9092357635056,6184192
14.9090794742394,7211776
14.9089231849732,7421184
14.9087668957071,7507968
14.9086106064409,8052480
14.9084543171747,8568064
14.9082980279085,7988480
14.9081417386424,6069760
14.9079854493762,3754496
14.90782916011,2090752
14.9076728708439,1296896
14.9075165815777,1051136
14.9073602923115,1198336
14.9072040030454,1839360
14.9070477137792,2980352
14.906891424513,4388352
14.9067351352468,5677568
14.9065788459807,6420736
14.9064225567145,6366464
14.9062662674483,5723648
14.9061099781822,5085184
14.905953688916,4903936
14.9057973996498,5114112
14.9056411103837,5341952
14.9054848211175,5350400
14.9053285318513,5181184
14.9051722425851,4975104
14.905015953319,4785664
14.9048596640528,4550912
14.9047033747866,4185088
14.9045470855205,3702272
14.9043907962543,3209472
14.9042345069881,2751232
14.904078217722,2231808
14.9039219284558,1536256
14.9037656391896,609280
14.9036093499234,-605440
14.9034530606573,-2028800
14.9032967713911,-3098880
14.9031404821249,-2956288
14.9029841928588,-1395200
14.9028279035926,635904
14.9026716143264,1995776
14.9025153250603,2623744
14.9023590357941,3276032
14.9022027465279,4167168
14.9020464572617,4663296
14.9018901679956,4393216
14.9017338787294,3807744
14.9015775894632,3359744
14.9014213001971,2918400
14.9012650109309,2447104
14.9011087216647,2481152
14.9009524323986,3259904
14.9007961431324,4020736
14.9006398538662,3971328
14.9004835646,3504640
14.9003272753339,3564800
14.9001709860677,4130048
14.9000146968015,4318976
14.8998584075354,3907840
14.8997021182692,3688704
14.899545829003,4104448
14.8993895397369,4439552
14.8992332504707,3800576
14.8990769612045,2232576
14.8989206719384,410880
14.8987643826722,-1216256
14.898608093406,-2448128
14.8984518041398,-2928640
14.8982955148737,-2347520
14.8981392256075,-900608
14.8979829363413,918272
14.8978266470752,2889728
14.897670357809,4985600
14.8975140685428,6721280
14.8973577792767,7058176
14.8972014900105,5294336
14.8970452007443,2012160
14.8968889114781,-1111808
14.896732622212,-2644224
14.8965763329458,-2569728
14.8964200436796,-1988864
14.8962637544135,-1685760
14.8961074651473,-1372672
14.8959511758811,-519168
14.895794886615,603136
14.8956385973488,1316096
14.8954823080826,1637888
14.8953260188164,2180096
14.8951697295503,3004160
14.8950134402841,3472384
14.8948571510179,3404800
14.8947008617518,3433472
14.8945445724856,3772672
14.8943882832194,3545088
14.8942319939533,2100224
14.8940757046871,290560
14.8939194154209,-543744
14.8937631261547,-454912
14.8936068368886,-716800
14.8934505476224,-1916928
14.8932942583562,-3225088
14.8931379690901,-3695360
14.8929816798239,-3417088
14.8928253905577,-3049728
14.8926691012916,-2880768
14.8925128120254,-2721792
14.8923565227592,-2266880
14.892200233493,-1262080
14.8920439442269,223232
14.8918876549607,1426176
14.8917313656945,1283072
14.8915750764284,-372736
14.8914187871622,-2347520
14.891262497896,-3232256
14.8911062086299,-2783232
14.8909499193637,-1784576
14.8907936300975,-791552
14.8906373408313,442112
14.8904810515652,2224128
14.890324762299,4027648
14.8901684730328,4680448
14.8900121837667,3506944
14.8898558945005,1199616
14.8896996052343,-645120
14.8895433159682,-990464
14.889387026702,-224000
14.8892307374358,615424
14.8890744481696,1171968
14.8889181589035,1811968
14.8887618696373,2477568
14.8886055803711,2341632
14.888449291105,1005056
14.8882930018388,-548096
14.8881367125726,-809984
14.8879804233065,644096
14.8878241340403,2805504
14.8876678447741,4244736
14.8875115555079,4108288
14.8873552662418,2441472
14.8871989769756,145408
14.8870426877094,-1453312
14.8868863984433,-1559040
14.8867301091771,-583680
14.8865738199109,376320
14.8864175306448,683520
14.8862612413786,469504
14.8861049521124,-7936
14.8859486628462,-739584
14.8857923735801,-1604352
14.8856360843139,-2151680
14.8854797950477,-2048768
14.8853235057816,-1488128
14.8851672165154,-947456
14.8850109272492,-715776
14.8848546379831,-758272
14.8846983487169,-847104
14.8845420594507,-718592
14.8843857701846,-317952
14.8842294809184,9728
14.8840731916522,-234240
14.883916902386,-1126144
14.8837606131199,-2111488
14.8836043238537,-2466816
14.8834480345875,-1895424
14.8832917453214,-707328
14.8831354560552,378368
14.882979166789,635648
14.8828228775229,-190464
14.8826665882567,-1667328
14.8825102989905,-3054592
14.8823540097243,-3919616
14.8821977204582,-4276480
14.882041431192,-4290560
14.8818851419258,-4153344
14.8817288526597,-4130816
14.8815725633935,-4289024
14.8814162741273,-4164352
14.8812599848612,-3183872
14.881103695595,-1517056
14.8809474063288,-61952
14.8807911170626,554752
14.8806348277965,512512
14.8804785385303,227584
14.8803222492641,-152320
14.880165959998,-436480
14.8800096707318,-287488
14.8798533814656,66560
14.8796970921995,-327168
14.8795408029333,-1878528
14.8793845136671,-3520768
14.8792282244009,-3934464
14.8790719351348,-3401984
14.8789156458686,-3463680
14.8787593566024,-4803840
14.8786030673363,-6521856
14.8784467780701,-7660032
14.8782904888039,-8372992
14.8781341995378,-9029120
14.8779779102716,-9058048
14.8778216210054,-7614720
14.8776653317392,-4995584
14.8775090424731,-2525952
14.8773527532069,-1049088
14.8771964639407,-158464
14.8770401746746,959744
14.8768838854084,2398720
14.8767275961422,3494912
14.8765713068761,3722496
14.8764150176099,3359744
14.8762587283437,3186432
14.8761024390775,3565056
14.8759461498114,4028416
14.8757898605452,3967488
14.875633571279,3523840
14.8754772820129,3337728
14.8753209927467,3443968
14.8751647034805,3048960
14.8750084142144,1692672
14.8748521249482,70912
14.874695835682,-788992
14.8745395464158,-769792
14.8743832571497,-518656
14.8742269678835,-395520
14.8740706786173,-267008
14.8739143893512,-215808
14.873758100085,-681472
14.8736018108188,-1717760
14.8734455215527,-2686720
